nm. A
800.000000. -0.002693
799.000000. -0.002854
798.000000. -0.003015
797.000000. -0.003153
796.000000. -0.003332
795.000000. -0.003488
794.000000. -0.003649
793.000000. -0.003829
792.000000. -0.004012
791.000000. -0.004175
790.000000. -0.004342
789.000000. -0.004467
788.000000. -0.004711
787.000000. -0.004871
786.000000. -0.005056
785.000000. -0.005266
784.000000. -0.005456
783.000000. -0.005645
782.000000. -0.005793
781.000000. -0.005987
780.000000. -0.006222
779.000000. -0.006370
778.000000. -0.006577
777.000000. -0.006760
776.000000. -0.006972
775.000000. -0.007115
774.000000. -0.007349
773.000000. -0.007527
772.000000. -0.007780
771.000000. -0.007972
770.000000. -0.008166
769.000000. -0.008329
768.000000. -0.008521
767.000000. -0.008755
766.000000. -0.008929
765.000000. -0.009120
764.000000. -0.009263
763.000000. -0.009474
762.000000. -0.009660
761.000000. -0.009838
760.000000. -0.010011
759.000000. -0.010220
758.000000. -0.010402
757.000000. -0.010564
756.000000. -0.010743
755.000000. -0.010954
754.000000. -0.011153
753.000000. -0.011318
752.000000. -0.011484
751.000000. -0.011517
750.000000. -0.011607
749.000000. -0.011833
748.000000. -0.011976
747.000000. -0.012178
746.000000. -0.012363
745.000000. -0.012463
744.000000. -0.012654
743.000000. -0.012804
742.000000. -0.013004
741.000000. -0.013132
740.000000. -0.013270
739.000000. -0.013421
738.000000. -0.013579
737.000000. -0.013723
736.000000. -0.013913
735.000000. -0.014026
734.000000. -0.014139
733.000000. -0.014300
732.000000. -0.014414
731.000000. -0.014586
730.000000. -0.014726
729.000000. -0.014881
728.000000. -0.015018
727.000000. -0.015138
726.000000. -0.015294
725.000000. -0.015433
724.000000. -0.015561
723.000000. -0.015700
722.000000. -0.015792
721.000000. -0.015896
720.000000. -0.016065
719.000000. -0.016174
718.000000. -0.016305
717.000000. -0.016440
716.000000. -0.016573
715.000000. -0.016718
714.000000. -0.016795
713.000000. -0.016950
712.000000. -0.017000
711.000000. -0.017128
710.000000. -0.017250
709.000000. -0.017426
708.000000. -0.017542
707.000000. -0.017582
706.000000. -0.017686
705.000000. -0.017804
704.000000. -0.017933
703.000000. -0.017994
702.000000. -0.018078
701.000000. -0.018183
700.000000. -0.018250
699.000000. -0.018370
698.000000. -0.018382
697.000000. -0.018531
696.000000. -0.018586
695.000000. -0.018638
694.000000. -0.018708
693.000000. -0.018675
692.000000. -0.018764
691.000000. -0.018799
690.000000. -0.018805
689.000000. -0.018770
688.000000. -0.018675
687.000000. -0.018633
686.000000. -0.018562
685.000000. -0.018421
684.000000. -0.018249
683.000000. -0.017961
682.000000. -0.017657
681.000000. -0.017328
680.000000. -0.016801
679.000000. -0.016294
678.000000. -0.015634
677.000000. -0.014871
676.000000. -0.013965
675.000000. -0.013043
674.000000. -0.012224
673.000000. -0.011577
672.000000. -0.011175
671.000000. -0.011089
670.000000. -0.011318
669.000000. -0.011922
668.000000. -0.012669
667.000000. -0.013562
666.000000. -0.014487
665.000000. -0.015517
664.000000. -0.016557
663.000000. -0.017700
662.000000. -0.018047
661.000000. -0.018255
660.000000. -0.018506
659.000000. -0.018673
658.000000. -0.018837
657.000000. -0.019095
656.000000. -0.019224
655.000000. -0.019398
654.000000. -0.019559
653.000000. -0.019739
652.000000. -0.019880
651.000000. -0.020045
650.000000. -0.020152
649.000000. -0.020288
648.000000. -0.020394
647.000000. -0.020562
646.000000. -0.020682
645.000000. -0.020816
644.000000. -0.020988
643.000000. -0.021072
642.000000. -0.021129
641.000000. -0.021299
640.000000. -0.021428
639.000000. -0.021548
638.000000. -0.021662
637.000000. -0.021727
636.000000. -0.021938
635.000000. -0.021945
634.000000. -0.022096
633.000000. -0.022205
632.000000. -0.022326
631.000000. -0.022415
630.000000. -0.022520
629.000000. -0.022655
628.000000. -0.022762
627.000000. -0.022805
626.000000. -0.022952
625.000000. -0.023008
624.000000. -0.023127
623.000000. -0.023178
622.000000. -0.023327
621.000000. -0.023449
620.000000. -0.023522
619.000000. -0.023632
618.000000. -0.023635
617.000000. -0.023766
616.000000. -0.023868
615.000000. -0.023912
614.000000. -0.024028
613.000000. -0.024130
612.000000. -0.024208
611.000000. -0.024305
610.000000. -0.024413
609.000000. -0.024475
608.000000. -0.024555
607.000000. -0.024651
606.000000. -0.024755
605.000000. -0.024891
604.000000. -0.024920
603.000000. -0.024974
602.000000. -0.025111
601.000000. -0.025147
600.000000. -0.025247
599.000000. -0.025288
598.000000. -0.025399
597.000000. -0.025427
596.000000. -0.025576
595.000000. -0.025605
594.000000. -0.025675
593.000000. -0.025759
592.000000. -0.025845
591.000000. -0.025929
590.000000. -0.025977
589.000000. -0.026053
588.000000. -0.026125
587.000000. -0.026264
586.000000. -0.026350
585.000000. -0.026383
584.000000. -0.026473
583.000000. -0.026528
582.000000. -0.026587
581.000000. -0.026695
580.000000. -0.026745
579.000000. -0.026877
578.000000. -0.026886
577.000000. -0.026957
576.000000. -0.027005
575.000000. -0.027130
574.000000. -0.027173
573.000000. -0.027266
572.000000. -0.027299
571.000000. -0.027379
570.000000. -0.027450
569.000000. -0.027512
568.000000. -0.027572
567.000000. -0.027646
566.000000. -0.027769
565.000000. -0.027768
564.000000. -0.027880
563.000000. -0.027964
562.000000. -0.027958
561.000000. -0.028061
560.000000. -0.028057
559.000000. -0.028151
558.000000. -0.028191
557.000000. -0.028288
556.000000. -0.028381
555.000000. -0.028424
554.000000. -0.028455
553.000000. -0.028481
552.000000. -0.028597
551.000000. -0.028782
550.000000. -0.028973
549.000000. -0.029041
548.000000. -0.029103
547.000000. -0.029199
546.000000. -0.029234
545.000000. -0.029281
544.000000. -0.029346
543.000000. -0.029467
542.000000. -0.029442
541.000000. -0.029510
540.000000. -0.029568
539.000000. -0.029615
538.000000. -0.029697
537.000000. -0.029731
536.000000. -0.029816
535.000000. -0.029872
534.000000. -0.029886
533.000000. -0.029995
532.000000. -0.030045
531.000000. -0.030128
530.000000. -0.030140
529.000000. -0.030212
528.000000. -0.030226
527.000000. -0.030342
526.000000. -0.030399
525.000000. -0.030418
524.000000. -0.030509
523.000000. -0.030515
522.000000. -0.030578
521.000000. -0.030634
520.000000. -0.030658
519.000000. -0.030748
518.000000. -0.030782
517.000000. -0.030868
516.000000. -0.030926
515.000000. -0.030989
514.000000. -0.030969
513.000000. -0.031112
512.000000. -0.031186
511.000000. -0.031212
510.000000. -0.031270
509.000000. -0.031250
508.000000. -0.031330
507.000000. -0.031382
506.000000. -0.031476
505.000000. -0.031486
504.000000. -0.031518
503.000000. -0.031532
502.000000. -0.031614
501.000000. -0.031676
500.000000. -0.031757
499.000000. -0.031749
498.000000. -0.031834
497.000000. -0.031863
496.000000. -0.031889
495.000000. -0.031919
494.000000. -0.032026
493.000000. -0.031970
492.000000. -0.032009
491.000000. -0.032068
490.000000. -0.032076
489.000000. -0.032159
488.000000. -0.032124
487.000000. -0.032175
486.000000. -0.032153
485.000000. -0.032177
484.000000. -0.032197
483.000000. -0.032174
482.000000. -0.032155
481.000000. -0.032095
480.000000. -0.032066
479.000000. -0.031966
478.000000. -0.031917
477.000000. -0.031774
476.000000. -0.031676
475.000000. -0.031513
474.000000. -0.031303
473.000000. -0.031052
472.000000. -0.030737
471.000000. -0.030351
470.000000. -0.029992
469.000000. -0.029549
468.000000. -0.029068
467.000000. -0.028539
466.000000. -0.027989
465.000000. -0.027414
464.000000. -0.027074
463.000000. -0.026702
462.000000. -0.026518
461.000000. -0.026458
460.000000. -0.026464
459.000000. -0.026605
458.000000. -0.026914
457.000000. -0.027250
456.000000. -0.027569
455.000000. -0.027995
454.000000. -0.028361
453.000000. -0.028675
452.000000. -0.029015
451.000000. -0.029394
450.000000. -0.029760
449.000000. -0.030068
448.000000. -0.030348
447.000000. -0.030571
446.000000. -0.030870
445.000000. -0.031143
444.000000. -0.031471
443.000000. -0.031738
442.000000. -0.031914
441.000000. -0.031900
440.000000. -0.031930
439.000000. -0.032051
438.000000. -0.032143
437.000000. -0.032203
436.000000. -0.032199
435.000000. -0.032243
434.000000. -0.032270
433.000000. -0.032236
432.000000. -0.032302
431.000000. -0.032419
430.000000. -0.032417
429.000000. -0.032383
428.000000. -0.032422
427.000000. -0.032455
426.000000. -0.032462
425.000000. -0.032407
424.000000. -0.032439
423.000000. -0.032473
422.000000. -0.032415
421.000000. -0.032317
420.000000. -0.032173
419.000000. -0.032004
418.000000. -0.031903
417.000000. -0.031944
416.000000. -0.031866
415.000000. -0.031908
414.000000. -0.032138
413.000000. -0.032483
412.000000. -0.032652
411.000000. -0.032852
410.000000. -0.033074
409.000000. -0.033261
408.000000. -0.033294
407.000000. -0.033432
406.000000. -0.033690
405.000000. -0.033677
404.000000. -0.033908
403.000000. -0.033947
402.000000. -0.034023
401.000000. -0.034151
400.000000. -0.034233
